  time (s)              T(t) (K)              P(t) (Pa)           Kinetic En. (n.u.)     Potential En. (n.u.) Total En. (n.u.)
  0.0000e+00           99.68393520            0.00000000        5261.47657561            0.00000000         5261.47657561 
  5.0000e-15           98.82433408            0.00000000        5216.10546169            0.00000000         5216.10546169 
  1.0000e-14           97.41657222            0.00000000        5141.80155304            0.00000000         5141.80155304 
  1.5000e-14           95.48544903            0.00000000        5039.87380105            0.00000000         5039.87380105 
  2.0000e-14           93.06556263            0.00000000        4912.14834939            0.00000000         4912.14834939 
  2.5000e-14           90.20176024            0.00000000        4760.99230663            0.00000000         4760.99230663 
  3.0000e-14           86.94955760            0.00000000        4589.33588076            0.00000000         4589.33588076 
  3.5000e-14           83.37538796            0.00000000        4400.68552521            0.00000000         4400.68552521 
  4.0000e-14           79.55651151            0.00000000        4199.11915474            0.00000000         4199.11915474 
  4.5000e-14           75.58039535            0.00000000        3989.25342296            0.00000000         3989.25342296 
  5.0000e-14           71.54337500            0.00000000        3776.17307082            0.00000000         3776.17307082 
  5.5000e-14           67.54844123            0.00000000        3565.31411563            0.00000000         3565.31411563 
  6.0000e-14           63.70207351            0.00000000        3362.29671232            0.00000000         3362.29671232 
  6.5000e-14           60.11016458            0.00000000        3172.71004875            0.00000000         3172.71004875 
  7.0000e-14           56.87324088            0.00000000        3001.86006951            0.00000000         3001.86006951 
  7.5000e-14           54.08135103            0.00000000        2854.49968465            0.00000000         2854.49968465 
  8.0000e-14           51.80912907            0.00000000        2734.56819753            0.00000000         2734.56819753 
  8.5000e-14           50.11159520            0.00000000        2644.96966097            0.00000000         2644.96966097 
  9.0000e-14           49.02120678            0.00000000        2587.41722678            0.00000000         2587.41722678 
  9.5000e-14           48.54651723            0.00000000        2562.36235763            0.00000000         2562.36235763 
  1.0000e-13           48.67257374            0.00000000        2569.01582082            0.00000000         2569.01582082 
  1.0500e-13           49.36294299            0.00000000        2605.45460705            0.00000000         2605.45460705 
  1.1000e-13           50.56305203            0.00000000        2668.79827019            0.00000000         2668.79827019 
  1.1500e-13           52.20440815            0.00000000        2755.43165575            0.00000000         2755.43165575 
  1.2000e-13           54.20922624            0.00000000        2861.24914201            0.00000000         2861.24914201 
  1.2500e-13           56.49503309            0.00000000        2981.89766107            0.00000000         2981.89766107 
  1.3000e-13           58.97890733            0.00000000        3113.00049223            0.00000000         3113.00049223 
  1.3500e-13           61.58112366            0.00000000        3250.34960727            0.00000000         3250.34960727 
  1.4000e-13           64.22807627            0.00000000        3390.05997390            0.00000000         3390.05997390 
  1.4500e-13           66.85444584            0.00000000        3528.68393562            0.00000000         3528.68393562 
  1.5000e-13           69.40464059            0.00000000        3663.28726836            0.00000000         3663.28726836 
  1.5500e-13           71.83358412            0.00000000        3791.49076962            0.00000000         3791.49076962 
  1.6000e-13           74.10694637            0.00000000        3911.48244332            0.00000000         3911.48244332 
  1.6500e-13           76.20092083            0.00000000        4022.00574418            0.00000000         4022.00574418 
  1.7000e-13           78.10164854            0.00000000        4122.32917459            0.00000000         4122.32917459 
  1.7500e-13           79.80437895            0.00000000        4212.20199246            0.00000000         4212.20199246 
  1.8000e-13           81.31244413            0.00000000        4291.80007008            0.00000000         4291.80007008 
  1.8500e-13           82.63610884            0.00000000        4361.66519791            0.00000000         4361.66519791 
  1.9000e-13           83.79134657            0.00000000        4422.64048185            0.00000000         4422.64048185 
  1.9500e-13           84.79858291            0.00000000        4475.80401746            0.00000000         4475.80401746 
  2.0000e-13           85.68144269            0.00000000        4522.40275984            0.00000000         4522.40275984 
  2.0500e-13           86.46553509            0.00000000        4563.78840335            0.00000000         4563.78840335 
  2.1000e-13           87.17731089            0.00000000        4601.35706140            0.00000000         4601.35706140 
  2.1500e-13           87.84302482            0.00000000        4636.49450105            0.00000000         4636.49450105 
  2.2000e-13           88.48783405            0.00000000        4670.52855763            0.00000000         4670.52855763 
  2.2500e-13           89.13505817            0.00000000        4704.69007530            0.00000000         4704.69007530 
  2.3000e-13           89.80561771            0.00000000        4740.08327404            0.00000000         4740.08327404 
  2.3500e-13           90.51765739            0.00000000        4777.66586027            0.00000000         4777.66586027 
  2.4000e-13           91.28634754            0.00000000        4818.23854870            0.00000000         4818.23854870 
  2.4500e-13           92.12384590            0.00000000        4862.44304339            0.00000000         4862.44304339 
  2.5000e-13           93.03939217            0.00000000        4910.76703115            0.00000000         4910.76703115 
  2.5500e-13           94.03950248            0.00000000        4963.55444312            0.00000000         4963.55444312 
  2.6000e-13           95.12822919            0.00000000        5021.01916951            0.00000000         5021.01916951 
  2.6500e-13           96.30745451            0.00000000        5083.26055698            0.00000000         5083.26055698 
  2.7000e-13           97.57719210            0.00000000        5150.27932555            0.00000000         5150.27932555 
  2.7500e-13           98.93587816            0.00000000        5221.99293579            0.00000000         5221.99293579 
  2.8000e-13          100.38064127            0.00000000        5298.24982956            0.00000000         5298.24982956 
  2.8500e-13          101.90754587            0.00000000        5378.84228184            0.00000000         5378.84228184 
  2.9000e-13          103.51180814            0.00000000        5463.51779491            0.00000000         5463.51779491 
  2.9500e-13          105.18798439            0.00000000        5551.98904184            0.00000000         5551.98904184 
  3.0000e-13          106.93013218            0.00000000        5643.94237213            0.00000000         5643.94237213 
  3.0500e-13          108.73194449            0.00000000        5739.04489014            0.00000000         5739.04489014 
  3.1000e-13          110.58685760            0.00000000        5836.95015309            0.00000000         5836.95015309 
  3.1500e-13          112.48813542            0.00000000        5937.30261896            0.00000000         5937.30261896 
  3.2000e-13          114.42893448            0.00000000        6039.74107874            0.00000000         6039.74107874 
  3.2500e-13          116.40235578            0.00000000        6143.90139247            0.00000000         6143.90139247 
  3.3000e-13          118.40149016            0.00000000        6249.41888334            0.00000000         6249.41888334 
  3.3500e-13          120.41946335            0.00000000        6355.93071603            0.00000000         6355.93071603 
  3.4000e-13          122.44948526            0.00000000        6463.07850015            0.00000000         6463.07850015 
  3.4500e-13          124.48490585            0.00000000        6570.51123434            0.00000000         6570.51123434 
  3.5000e-13          126.51927668            0.00000000        6677.88856143            0.00000000         6677.88856143 
  3.5500e-13          128.54641534     84584954.08596206        6784.88416260            0.00000000         6784.88416260 
  3.6000e-13          130.55885035            0.00000000        6891.10368135            0.00000000         6891.10368135 
  3.6500e-13          132.55237397            0.00000000        6996.32502770            0.00000000         6996.32502770 
  3.7000e-13          134.52187348            0.00000000        7100.27834252            0.00000000         7100.27834252 
  3.7500e-13          136.46266575            0.00000000        7202.71644384            0.00000000         7202.71644384 
  3.8000e-13          138.37047762            0.00000000        7303.41378735            0.00000000         7303.41378735 
  3.8500e-13          140.24138948    162250952.50643864        7402.16349008            0.00000000         7402.16349008 
  3.9000e-13          142.06668394     90489909.18009065        7498.50543321            0.00000000         7498.50543321 
  3.9500e-13          143.84867001     67247234.10022996        7592.56149110            0.00000000         7592.56149110 
  4.0000e-13          145.58376506     70315978.06753887        7684.14256633            0.00000000         7684.14256633 
  4.0500e-13          147.26584778    167389069.39914611        7772.92556659            0.00000000         7772.92556659 
  4.1000e-13          148.88970166            0.00000000        7858.63515574            0.00000000         7858.63515574 
  4.1500e-13          150.45106880            0.00000000        7941.04659541            0.00000000         7941.04659541 
  4.2000e-13          151.94436037            0.00000000        8019.86489867            0.00000000         8019.86489867 
  4.2500e-13          153.36359403     68692374.87635967        8094.77430746            0.00000000         8094.77430746 
  4.3000e-13          154.70236091     72339582.47498548        8165.43655167            0.00000000         8165.43655167 
  4.3500e-13          155.95633793    123012077.21093914        8231.62345261            0.00000000         8231.62345261 
  4.4000e-13          157.12109680     60231302.43741011        8293.10127722            0.00000000         8293.10127722 
  4.4500e-13          158.18837156    214194537.32508317        8349.43373584            0.00000000         8349.43373584 
  4.5000e-13          159.15504332    243095590.36341128        8400.45620810            0.00000000         8400.45620810 
  4.5500e-13          160.01988392    234654923.17298409        8446.10386976            0.00000000         8446.10386976 
  4.6000e-13          160.78248768    130316999.80557492        8486.35530890            0.00000000         8486.35530890 
  4.6500e-13          161.44128515    416698410.03725111        8521.12768653            0.00000000         8521.12768653 
  4.7000e-13          162.00104861    189391590.72474185        8550.67289194            0.00000000         8550.67289194 
  4.7500e-13          162.46989662    223901740.35114583        8575.41943529            0.00000000         8575.41943529 
  4.8000e-13          162.85240222    131682038.91607761        8595.60868889            0.00000000         8595.60868889 
  4.8500e-13          163.15702476     92528517.61979558        8611.68715110            0.00000000         8611.68715110 
  4.9000e-13          163.39915182    110139263.65797672        8624.46700193            0.00000000         8624.46700193 
  4.9500e-13          163.58967225    162480427.42133504        8634.52297298            0.00000000         8634.52297298 
  5.0000e-13          163.73757003    196293930.08400485        8642.32925328            0.00000000         8642.32925328 
  5.0500e-13          163.85341514    396916454.10727507        8648.44374198            0.00000000         8648.44374198 
  5.1000e-13          163.94561509    350422768.41743982        8653.31020217            0.00000000         8653.31020217 
  5.1500e-13          164.01723887    342394933.44476974        8657.09061887            0.00000000         8657.09061887 
  5.2000e-13          164.06313265    153753813.75082663        8659.51296601            0.00000000         8659.51296601 
  5.2500e-13          164.08586361    452235516.14987028        8660.71274176            0.00000000         8660.71274176 
  5.3000e-13          164.08153799    209607341.44965196        8660.48442867            0.00000000         8660.48442867 
  5.3500e-13          164.05016645    171667742.97352415        8658.82858897            0.00000000         8658.82858897 
  5.4000e-13          163.99215780     53172580.42381760        8655.76680040            0.00000000         8655.76680040 
  5.4500e-13          163.91043327     55978473.92136467        8651.45324978            0.00000000         8651.45324978 
  5.5000e-13          163.80804182    140846457.77685985        8646.04886641            0.00000000         8646.04886641 
  5.5500e-13          163.69001556    322281155.50734067        8639.81925278            0.00000000         8639.81925278 
  5.6000e-13          163.55938026    134607107.65397361        8632.92411355            0.00000000         8632.92411355 
  5.6500e-13          163.41435958    168593919.82385671        8625.26969186            0.00000000         8625.26969186 
  5.7000e-13          163.25323371    212262062.71592486        8616.76521239            0.00000000         8616.76521239 
  5.7500e-13          163.07009069    222860646.87453768        8607.09863237            0.00000000         8607.09863237 
  5.8000e-13          162.85942674    274135161.20877081        8595.97945445            0.00000000         8595.97945445 
  5.8500e-13          162.62389230    111868566.49965145        8583.54757193            0.00000000         8583.54757193 
  5.9000e-13          162.36530578    330708377.94532496        8569.89896458            0.00000000         8569.89896458 
  5.9500e-13          162.08282012    220954950.28400987        8554.98892196            0.00000000         8554.98892196 
  6.0000e-13          161.78442617    294547436.05742675        8539.23921499            0.00000000         8539.23921499 
  6.0500e-13          161.47423920    352728984.20576972        8522.86705373            0.00000000         8522.86705373 
  6.1000e-13          161.16285713    334578335.58600885        8506.43181326            0.00000000         8506.43181326 
  6.1500e-13          160.85851157    216604012.40297648        8490.36797055            0.00000000         8490.36797055 
  6.2000e-13          160.56229092    477540210.64608133        8474.73297379            0.00000000         8474.73297379 
  6.2500e-13          160.27781787    377117442.11371922        8459.71803371            0.00000000         8459.71803371 
  6.3000e-13          160.00513257    494751240.07091695        8445.32527045            0.00000000         8445.32527045 
  6.3500e-13          159.75483890    336756506.52051926        8432.11437241            0.00000000         8432.11437241 
  6.4000e-13          159.52061498    274860696.52935302        8419.75166169            0.00000000         8419.75166169 
  6.4500e-13          159.30138554    224051633.40313366        8408.18038315            0.00000000         8408.18038315 
  6.5000e-13          159.09363133    288398599.03076738        8397.21478592            0.00000000         8397.21478592 
  6.5500e-13          158.90157945    350699658.37298441        8387.07798209            0.00000000         8387.07798209 
  6.6000e-13          158.71935494    398465978.52580309        8377.45988270            0.00000000         8377.45988270 
  6.6500e-13          158.55067869    388006589.16447294        8368.55688201            0.00000000         8368.55688201 
  6.7000e-13          158.39654387    181977768.81160066        8360.42140143            0.00000000         8360.42140143 
  6.7500e-13          158.25418332    191719133.69065294        8352.90738503            0.00000000         8352.90738503 
  6.8000e-13          158.12568505    330334432.03616530        8346.12504208            0.00000000         8346.12504208 
  6.8500e-13          158.01030801    256416710.32208428        8340.03525848            0.00000000         8340.03525848 
  6.9000e-13          157.90420518    418975238.28068471        8334.43498243            0.00000000         8334.43498243 
  6.9500e-13          157.80565272    335896460.64625692        8329.23322721            0.00000000         8329.23322721 
  7.0000e-13          157.70407310    170632377.08916956        8323.87169331            0.00000000         8323.87169331 
  7.0500e-13          157.59269953    115479066.37864731        8317.99321940            0.00000000         8317.99321940 
  7.1000e-13          157.46318001    404911630.30663556        8311.15697318            0.00000000         8311.15697318 
  7.1500e-13          157.31318900    298214972.00189948        8303.24020903            0.00000000         8303.24020903 
  7.2000e-13          157.13432108    114305447.97964731        8293.79927591            0.00000000         8293.79927591 
  7.2500e-13          156.94189174    192132847.61621892        8283.64254935            0.00000000         8283.64254935 
  7.3000e-13          156.74385890    157830281.32946044        8273.19006120            0.00000000         8273.19006120 
  7.3500e-13          156.54206663    150661450.90531290        8262.53914429            0.00000000         8262.53914429 
  7.4000e-13          156.34541847    219239162.68062735        8252.15974170            0.00000000         8252.15974170 
  7.4500e-13          156.15630292    210942437.02744180        8242.17792237            0.00000000         8242.17792237 
  7.5000e-13          155.97929882    119888289.03073408        8232.83536455            0.00000000         8232.83536455 
  7.5500e-13          155.82225707    108974002.47281839        8224.54645127            0.00000000         8224.54645127 
  7.6000e-13          155.68381226    421392641.94283915        8217.23911445            0.00000000         8217.23911445 
  7.6500e-13          155.56875263    198459710.32298142        8211.16608414            0.00000000         8211.16608414 
  7.7000e-13          155.47958234    369652861.21383655        8206.45953466            0.00000000         8206.45953466 
  7.7500e-13          155.41450827    111079761.00926968        8203.02482135            0.00000000         8203.02482135 
  7.8000e-13          155.36847521    150977281.15076607        8200.59512369            0.00000000         8200.59512369 
  7.8500e-13          155.34751287     60143678.52804754        8199.48869811            0.00000000         8199.48869811 
  7.9000e-13          155.34645336    301976203.14011252        8199.43277511            0.00000000         8199.43277511 
  7.9500e-13          155.36120808    155822245.37606099        8200.21155302            0.00000000         8200.21155302 
  8.0000e-13          155.38887674            0.00000000        8201.67194851            0.00000000         8201.67194851 
